Step Density Temp Press 
   26000   0.64695132    298.41507    297.21131 
   26100   0.64484017    294.77745     129.0424 
   26200   0.63993745    301.77238   -17.966752 
   26300   0.63527542    301.07259   -75.840556 
   26400   0.63232356    299.95252   -83.932292 
   26500   0.63060471    298.65109   -100.97991 
   26600   0.62887483    300.32242   -94.310846 
   26700   0.62715876     297.7883     348.7298 
   26800   0.62491536    297.67634    239.13672 
   26900   0.62296262     297.5366   -30.387501 
   27000   0.62127931     298.5692     138.3445 
   27100     0.620144    303.09343   -2.6165716 
   27200   0.62041174    299.82812    -14.90464 
   27300   0.62071076    297.72838    234.56861 
   27400    0.6210198    296.32387    73.278865 
   27500   0.62217124    296.87833    60.813247 
   27600   0.62360258    297.03918   -48.769169 
   27700   0.62494003    299.37318   -71.354446 
   27800   0.62530735    297.48384   -484.00503 
   27900   0.62430447    299.76266    -138.6177 
   28000   0.62283533    296.35603    354.56763 
   28100   0.62189636    295.96705   -211.21325 
   28200    0.6223279    300.12496   -281.43155 
   28300   0.62351763    303.46437    279.47217 
   28400   0.62376817    303.04659     437.2535 
   28500   0.62291888    295.80532    167.07978 
   28600   0.62138098    301.80175    24.664856 
   28700   0.61987112    295.97966    5.4237796 
   28800   0.61865192    297.68834   -69.047033 
   28900   0.61770744    301.31274    258.31832 
   29000   0.61768967    300.59277    152.50239 
   29100   0.61744605    295.79448   -449.59673 
   29200   0.61788826    295.06243   -378.26207 
   29300   0.61785885    298.88735   -270.78579 
   29400   0.61795011    302.54414    56.709347 
   29500   0.61736244    305.47942   -116.48418 
   29600   0.61694952    300.79028    313.13446 
   29700   0.61568572    301.21646   -54.327406 
   29800   0.61464384    296.11641   -218.02809 
   29900   0.61414637    297.51004    117.65183 
   30000   0.61446653    300.36934    108.96255 
   30100   0.61578725    299.48018    71.810093 
   30200   0.61646248    298.32255     170.9047 
   30300   0.61564193    294.78262    219.90101 
   30400   0.61420054    300.24328    106.28053 
   30500   0.61312514     297.0568    159.01119 
   30600   0.61342632    298.19567    78.924348 
   30700   0.61407572    302.47463    89.195139 
   30800   0.61415518    300.76307   -232.30782 
   30900   0.61434594    300.74762   -329.67198 
   31000   0.61517204    295.73582    85.662343 
   31100   0.61583896    296.38168    207.62842 
   31200   0.61604722     300.0942    130.78433 
   31300   0.61597134    300.57169    26.957568 
   31400   0.61584808    292.49451   -33.792367 
   31500    0.6147177    296.13984      -182.84 
   31600   0.61416616    299.10228    38.634469 
   31700   0.61438796    297.43374    75.050953 
   31800   0.61505638    299.79115    244.51078 
   31900   0.61599873    301.19697    169.92325 
   32000   0.61694918    299.09752    223.66979 
   32100   0.61784985     300.4044    261.28907 
   32200    0.6194034    298.81027    231.58197 
   32300   0.62108962    295.40454    121.88833 
   32400   0.62275457    295.62669    330.65945 
   32500   0.62375942    300.92992    89.939197 
   32600   0.62354268    298.50056   -62.142082 
   32700   0.62243846    293.86323    474.89478 
   32800    0.6196257     294.1858    145.26392 
   32900   0.61699721     295.9132   -284.83274 
   33000   0.61555722    301.00345   -142.64676 
   33100   0.61462737     297.2749   -341.52611 
   33200    0.6142321    294.27113   -175.84618 
   33300    0.6140837    294.61344   -147.96427 
   33400   0.61435926    295.22268    -499.5566 
   33500   0.61562349    295.43003   -5.7215898 
   33600   0.61698587    293.66896    275.05306 
   33700   0.61784125    299.20003    252.26404 
   33800   0.61760632    296.71131    438.51441 
   33900   0.61594165    300.06752    123.41796 
   34000   0.61400558    296.89002   -205.90873 
   34100    0.6123857    293.52558   -49.891979 
   34200    0.6111969    293.92925   -297.25575 
   34300   0.61085281    296.59749   -321.27887 
   34400   0.61139433    299.45331   -29.689541 
   34500   0.61213376    297.99567   -183.81861 
   34600   0.61367867    293.78214   -22.096355 
   34700   0.61443983    296.98037   -116.27287 
   34800   0.61528012    295.14682   -44.022637 
   34900   0.61624518    299.30799   -13.788613 
   35000   0.61739002    299.58891   -124.37263 
   35100   0.61923199    292.97952    56.790479 
   35200   0.61972339     298.3782    108.98377 
   35300   0.61887813    297.37547    32.711145 
   35400   0.61725863    292.78851   -130.86241 
   35500   0.61534367    294.77699   -64.103162 
   35600   0.61449508    294.87736   -115.91266 
   35700   0.61363536    295.80005   -298.64494 
   35800   0.61320502    300.35876    268.43677 
   35900   0.61290316    299.66352    139.70937 
   36000   0.61273209    297.98685   -131.90725 
   36100   0.61362963    296.56458    -99.37877 
   36200   0.61549009    295.63734    5.0501128 
   36300   0.61741672    298.31153   -109.22515 
   36400   0.61829577    300.20277   -42.600822 
   36500    0.6184258    297.27059    40.872224 
   36600   0.61828421    293.49148    284.73364 
   36700   0.61814276    297.76361     425.4028 
   36800   0.61796973    299.81065    39.159945 
   36900   0.61710773    299.46905    112.31369 
   37000   0.61495106    297.99154    569.52992 
   37100   0.61174561     295.9371    328.42282 
   37200    0.6094954    294.02647    171.59966 
   37300   0.60775569    293.85842   -248.44873 
   37400   0.60772359    295.15983   -5.4279364 
   37500   0.60810333    300.29613    -59.58088 
   37600    0.6095325    300.51349   -26.728622 
   37700   0.61064533     301.7508   -163.83629 
   37800   0.61205697    290.99724   -213.47894 
   37900   0.61427602    294.25595   -3.6846312 
   38000   0.61580415    296.19861    348.53338 
   38100   0.61598234    296.16278    130.56721 
   38200    0.6152205    298.06805   -268.11663 
   38300   0.61445785     293.2829    128.80667 
   38400    0.6138963     293.5469    377.02079 
   38500   0.61419011    297.29298    76.111808 
   38600    0.6145453     299.4706   -140.20797 
   38700   0.61524462    300.47112    29.505878 
   38800   0.61572103    295.50988    141.82931 
   38900   0.61591478    295.41019    292.27052 
   39000   0.61591522    295.64983    137.87231 
   39100   0.61638896     295.2964    20.292646 
   39200   0.61638577    297.52416   -18.322803 
   39300   0.61565021    300.55688    129.87404 
   39400   0.61555273    296.75366    221.21357 
   39500    0.6145519    302.16072   -217.71914 
   39600   0.61374686    300.01456   -102.72724 
   39700   0.61315762     297.7821   -103.11188 
   39800   0.61324584    293.86621   -97.875543 
   39900   0.61424389    298.50217   -283.27955 
   40000   0.61529928     301.4324   -34.117864 
   40100    0.6161715    298.09251    372.61057 
   40200    0.6166849    300.22565    9.9361753 
   40300   0.61715896    296.80114   -302.70763 
   40400   0.61851203    297.70505   -150.51685 
   40500   0.62112184    295.85311    76.217977 
   40600   0.62370985    294.25869    64.563598 
   40700   0.62573421    293.34611    43.653546 
   40800   0.62685505    300.38795     75.77018 
   40900   0.62839658    301.78489   -52.805073 
   41000   0.62866528    300.29484    118.31414 
   41100   0.62775562    296.25377   -20.627901 
   41200   0.62625177    296.55541   -63.641882 
   41300   0.62442715    298.30399    32.057962 
   41400   0.62272153    299.20827    546.15729 
   41500   0.62114107    296.89147    230.88476 
   41600   0.61936018    298.81832   -253.21359 
   41700   0.61721299    298.52582    29.861918 
   41800   0.61516809    301.61631   -3.5530459 
   41900   0.61441754    300.78156    128.86562 
   42000   0.61495706    298.05607    90.077483 
   42100   0.61584412    297.53616  -0.60370544 
   42200   0.61638767    295.65286    233.22477 
   42300   0.61679459    300.55747   -21.677977 
   42400   0.61761506    294.38727     16.93464 
   42500   0.61768957    292.95619    149.78399 
   42600   0.61800658    298.64253    150.03603 
   42700   0.61930082    301.17624    422.96605 
   42800   0.62086535    297.56339    109.86436 
   42900   0.62176965    297.45346   -263.25842 
   43000    0.6214579    296.42345   -134.47765 
   43100     0.621512    294.54173   -86.401661 
   43200   0.62155659     298.6025    -67.67489 
   43300   0.62169859     301.6646    284.13249 
   43400    0.6215881    297.26503    31.111513 
   43500    0.6210996    298.50985   -478.12757 
   43600   0.62078417    298.00348    8.3910055 
   43700   0.61988909    300.08909     53.96753 
   43800   0.61934049    301.24354   -205.92332 
   43900   0.61945759    298.94437   -74.204388 
   44000   0.61991881    294.12494    -25.08179 
   44100   0.62017605    296.92842    67.187597 
   44200   0.62048522    296.99495    109.63167 
   44300    0.6199409    299.63372    -148.1342 
   44400   0.61885076    298.94049    324.94875 
   44500   0.61755236    300.10478    421.60304 
   44600   0.61612185    297.59191   -65.824839 
   44700    0.6141593      298.446   -184.66896 
   44800   0.61237306    300.56288     16.63659 
   44900   0.61171698    299.94625    176.09631 
   45000   0.61258305    298.38155    204.40941 
   45100   0.61461924    295.92455    275.26606 
   45200   0.61662455    300.64783    184.94394 
   45300   0.61840358    301.19764    266.77583 
   45400   0.61935786       297.29   -41.811034 
   45500   0.61935775    294.16013   -212.43351 
   45600   0.61882249    298.21453    -169.1278 
   45700   0.61888741    297.23927    17.872223 
   45800   0.61897509    296.82081    125.20254 
   45900   0.61892067    292.77922   -12.630911 
   46000   0.61833331    294.19838   -104.73886 
   46100   0.61820026    297.76683    294.88095 
   46200   0.61814459     298.4509    437.17783 
   46300   0.61796001    300.32663    59.945559 
   46400   0.61789034    298.34599    137.35089 
   46500   0.61815765     293.1825    25.547661 
   46600   0.61869599    295.54023    136.36326 
   46700   0.61979956    300.76265    272.76045 
   46800   0.62113332    301.95298   -281.13547 
   46900    0.6224673    297.74908   -16.423292 
   47000   0.62314769    295.28476    220.54427 
   47100   0.62333622    295.70958   -127.14716 
   47200   0.62267008    300.51818   -113.95736 
   47300   0.62081904    296.53341    -114.5472 
   47400   0.61804728    297.20462    56.766531 
   47500   0.61700975    292.68908    627.72737 
   47600   0.61723794    294.82722    200.87604 
   47700   0.61886887    298.56709   -62.237717 
   47800   0.61991896    301.05599    321.82035 
   47900   0.61994674    301.46829    189.97531 
   48000   0.61963819    298.19905    74.646651 
   48100   0.61918132    296.77585    181.56685 
   48200   0.61934373    294.19719   -41.811302 
   48300   0.61906809    299.37877   -292.84799 
   48400   0.61816864    299.02885   -113.06122 
   48500   0.61725254    295.56122    115.20117 
   48600   0.61606474    299.39926   -101.47891 
   48700   0.61526421    298.99863   -50.131277 
   48800   0.61507352    294.30338   -247.78549 
   48900   0.61655186    293.71565   -210.09538 
   49000   0.61922243    297.39216    -53.11969 
   49100   0.62119041    301.26301    108.25917 
   49200   0.62240588    296.04608     317.5323 
   49300   0.62255296    294.32859    196.56722 
   49400   0.62148302    293.48392    522.35139 
   49500   0.61968227    299.18247    107.97091 
   49600   0.61839493    300.91833   -282.10278 
   49700   0.61865973    297.18698   -28.058952 
   49800   0.61983527    295.30197    57.083882 
   49900   0.62013378    299.93907    19.654805 
   50000   0.61985187    301.62577   -48.329486 
   50100   0.61788944    300.57058   -167.38019 
   50200   0.61539532    298.84971    2.2742111 
   50300   0.61386433    298.01062   -71.308169 
   50400   0.61375741    298.72231   -150.04044 
   50500   0.61453561    296.81855   -100.22149 
   50600   0.61561863     301.3979    190.24857 
   50700   0.61651784    301.07996   -117.43489 
   50800   0.61792181    301.73727   -211.73164 
   50900   0.62043417    299.26113    79.086987 
   51000   0.62279038    297.97236   -97.849846 
   51100   0.62477746    300.16199    11.312489 
   51200   0.62658218    298.42374    96.022324 
   51300   0.62714722     298.5021   -68.346971 
   51400   0.62692231    296.03976    248.48243 
   51500   0.62599646    297.76148    144.43685 
   51600   0.62662813    294.09004     23.56177 
   51700    0.6280629    301.10526    267.08455 
   51800   0.62927808    303.06235    187.97456 
   51900   0.62902883    299.03047    63.650024 
   52000   0.62759522    296.62048    290.12938 
   52100   0.62555293    296.22688     210.4201 
   52200   0.62308162    298.84133   -230.00567 
   52300   0.62074215    300.88791    124.20747 
   52400   0.61969448    299.53694    176.30922 
   52500   0.61977164     297.6837   -66.085593 
   52600   0.62058712    297.92613   -215.14035 
   52700   0.62169367    302.05775   -361.27683 
   52800   0.62265576    303.91614   -314.87331 
   52900   0.62312238     302.8527   -26.996152 
   53000   0.62293258    298.33331   -232.60192 
   53100   0.62318636      294.835   -178.35281 
   53200   0.62315644    296.91507     69.33921 
   53300   0.62186498    298.93487   -92.918821 
   53400   0.62056456    301.02463     5.543095 
   53500   0.61956325    298.06316   -226.55493 
   53600   0.61932393    296.41286   -159.83701 
   53700   0.61996814    297.35264    160.08258 
   53800   0.62157602    298.33472    144.50169 
   53900   0.62364159    296.56592   -387.43534 
   54000   0.62568716    294.58011     256.7663 
   54100   0.62631999     297.4735    354.54598 
   54200   0.62575843    298.19427    68.022611 
   54300   0.62370829    295.80847   -176.68635 
   54400   0.62096594    299.50655   -567.09147 
   54500   0.61949051    301.14927   -165.13476 
   54600   0.61941403    291.89821    198.00054 
   54700   0.62055793    292.47189   -3.8123082 
   54800   0.62186714    304.85124    38.684549 
   54900   0.62323173    302.00293   -33.932852 
   55000   0.62374138    296.65381    -212.1339 
   55100    0.6242359     293.3637    89.822632 
   55200   0.62390787    296.92458   -21.628936 
   55300   0.62306243    300.86241   -428.96476 
   55400   0.62269484    301.81867    98.255587 
   55500   0.62284703    299.09068    267.63813 
   55600   0.62338112    295.49918    28.666507 
   55700   0.62457822      297.193    44.052596 
   55800   0.62592668    299.74309   -246.10627 
   55900   0.62757665    303.61322    179.22797 
   56000   0.62819966    297.40352   -262.09268 
   56100   0.62856727     297.8937    49.564883 
   56200   0.62824266    302.23293    162.97489 
   56300   0.62779754    298.26249   -105.93959 
   56400   0.62706555    298.69149   -120.63969 
   56500   0.62568689     296.3525   -52.493494 
   56600   0.62408581    292.83535    180.79298 
   56700   0.62226362    294.35707    14.041592 
   56800   0.62143589    299.79952    35.252035 
   56900   0.62082263    300.42841    171.29769 
   57000   0.61974351    297.71709   -50.712891 
   57100   0.61958294    294.61743    -221.7792 
   57200   0.62022425    294.82151    15.397366 
   57300    0.6213279    296.54843    169.37814 
   57400   0.62231354    300.08835     79.21676 
   57500   0.62317744    296.99765   -147.16235 
   57600   0.62506491    297.54966    59.772514 
   57700   0.62680683     299.8446    294.94925 
   57800   0.62814562    296.55998    180.21735 
   57900   0.62844133    299.40932    225.18731 
   58000   0.62832033    297.58769   -4.8663746 
   58100   0.62903271    292.14473   -164.96747 
   58200   0.62881905    297.27188   -135.95051 
   58300   0.62809896    297.19932   -98.918058 
   58400   0.62772209    299.24731   -21.174551 
   58500   0.62633736    297.70797   -23.654193 
   58600   0.62522107    298.04991   -60.383232 
   58700   0.62483452    294.93122   -203.83398 
   58800   0.62566973    292.68296    -108.8841 
   58900   0.62704003    294.85196    373.33946 
   59000   0.62754622    298.82492    297.38065 
   59100   0.62725998    299.94975   -241.93406 
   59200   0.62708481    294.99186   -105.20422 
   59300   0.62669092    295.56822   -242.57302 
   59400   0.62750846    296.98762    116.30657 
   59500   0.62857969    298.41586    311.06912 
   59600   0.62741775    301.56058   -141.42592 
   59700   0.62463073    300.19598   -302.72078 
   59800   0.62215428    293.09498    458.10217 
   59900   0.62089567    293.79149    254.35849 
   60000    0.6213264    295.23569   -59.104434 
   60100   0.62175428    301.39801    101.61363 
   60200    0.6217834    301.06745    319.61243 
   60300   0.62098408    299.41528   -147.43619 
   60400   0.62066069    298.26127   -406.15763 
   60500   0.62132731    296.58571   -10.117159 
   60600   0.62238527    296.12286    234.97293 
   60700   0.62268137    298.75096   -265.40878 
   60800    0.6228197    305.53735   -489.00101 
   60900   0.62342244    310.22401   -279.15185 
   61000   0.62363117    300.56454    196.11545 
   61100   0.62244965    296.82297    104.40091 
   61200   0.62057602    297.19001    -120.4897 
   61300   0.61974851    296.94096   -481.79446 
   61400    0.6202583    294.70722   -334.89218 
   61500    0.6218154    298.86703    95.040536 
   61600   0.62395131    300.72338    182.37666 
   61700   0.62572306    295.54185   -120.44448 
   61800   0.62580124    292.41786   -240.54132 
   61900   0.62469205     297.0328   -85.353689 
   62000   0.62368135     297.2989    86.030826 
   62100     0.623239     299.2469    78.561979 
   62200   0.62369231    295.02105   -144.79254 
   62300   0.62340354    301.09877   -108.79638 
   62400   0.62231159    298.13093    124.71132 
   62500   0.62052098    301.91727    43.602188 
   62600   0.61867104     297.3957   -107.09144 
   62700    0.6181031    297.93404    247.07244 
   62800   0.61836456    296.38218    102.77667 
   62900   0.61884513    300.04317   -58.820603 
   63000   0.62031656    299.97726    89.456685 
   63100   0.62165797    297.09252    403.04772 
   63200   0.62270146    293.75439    256.34143 
   63300    0.6230136    301.15545     118.4457 
   63400    0.6236139    299.77375    258.26415 
   63500   0.62432639     296.5483     224.0132 
   63600   0.62489647    293.93518   -84.822308 
   63700    0.6254787     297.0133    -84.26993 
   63800    0.6254931    292.46649    207.12416 
   63900   0.62529992    300.02746     124.4734 
   64000   0.62541563    297.50208   -17.242644 
   64100   0.62602274    291.47964    95.489032 
   64200   0.62564935    297.53845    161.17765 
   64300    0.6240756    301.29783    140.77876 
   64400   0.62293817    297.90603   -4.3860815 
   64500   0.62243531     294.3884    -28.86107 
   64600   0.62291607    297.94049    189.82754 
   64700   0.62505117     301.3061    84.049341 
   64800   0.62773173    302.07024   -158.64453 
   64900   0.63022813    298.02372   -99.087147 
   65000   0.63119981     296.0777    -124.3937 
   65100   0.63054754    297.59723    31.670527 
   65200   0.62909536     297.4733    125.46613 
   65300   0.62779202    295.01539   -79.396921 
   65400   0.62742126    296.63254   -322.09846 
   65500   0.62814218    299.30307   -154.24062 
   65600   0.62887155    297.68501   -100.93939 
   65700     0.629622    301.36558    120.05106 
   65800    0.6305293    297.98702    253.59345 
   65900   0.63150837    295.25335    264.88532 
   66000   0.63169703    296.27066    124.51856 
   66100    0.6310168    300.65093     189.7328 
   66200   0.63008201    297.12256    193.18373 
   66300   0.62936188    298.83806    72.980976 
   66400   0.62850932    303.43353   -203.92744 
   66500   0.62791771    300.99113   -196.67286 
   66600   0.62764437    300.52488    339.72238 
